# MSD gathered over 10000 ps with 501 restarts
# Diffusion constants fitted from time 1000 to 9000 ps
# D[       SOL] = 2.2402 (+/- 0.1216) (1e-5 cm^2/s)
         0           0
         4   0.0615223
         8    0.113699
        12    0.166017
        16    0.217771
        20    0.268908
        24    0.320455
        28    0.372292
        32    0.424192
        36     0.47607
        40     0.52737
        44    0.578714
        48    0.631338
        52    0.683103
        56    0.735381
        60    0.786711
        64     0.83829
        68     0.89121
        72    0.942581
        76    0.994706
        80     1.04619
        84      1.0974
        88     1.15059
        92     1.20153
        96     1.25358
       100     1.30562
       104     1.35706
       108      1.4103
       112     1.46159
       116     1.51381
       120     1.56569
       124     1.61709
       128     1.67039
       132     1.72127
       136      1.7741
       140     1.82644
       144      1.8781
       148     1.93136
       152     1.98211
       156     2.03485
       160     2.08749
       164      2.1394
       168     2.19264
       172     2.24299
       176     2.29572
       180     2.34914
       184     2.40092
       188     2.45424
       192     2.50437
       196     2.55728
       200     2.61058
       204     2.66239
       208     2.71532
       212     2.76496
       216     2.81783
       220     2.87062
       224     2.92227
       228     2.97504
       232      3.0247
       236     3.07736
       240     3.13021
       244     3.18194
       248     3.23444
       252     3.28408
       256     3.33705
       260     3.39003
       264     3.44158
       268     3.49349
       272     3.54329
       276     3.59594
       280     3.64909
       284     3.70065
       288     3.75258
       292     3.80226
       296     3.85434
       300     3.90749
       304     3.95932
       308     4.01155
       312     4.06096
       316     4.11318
       320     4.16633
       324     4.21892
       328     4.27119
       332     4.32017
       336     4.37235
       340     4.42535
       344     4.47813
       348     4.53015
       352      4.5791
       356     4.63141
       360     4.68429
       364     4.73653
       368      4.7881
       372     4.83713
       376     4.88917
       380     4.94183
       384     4.99466
       388     5.04565
       392     5.09444
       396      5.1464
       400     5.19944
       404     5.25226
       408     5.30371
       412     5.35199
       416     5.40399
       420     5.45695
       424     5.51008
       428     5.56133
       432     5.60905
       436      5.6609
       440     5.71401
       444     5.76663
       448     5.81816
       452     5.86585
       456     5.91717
       460     5.97046
       464     6.02312
       468     6.07465
       472     6.12225
       476     6.17371
       480     6.22739
       484     6.28032
       488     6.33181
       492     6.37889
       496     6.43064
       500      6.4843
       504     6.53724
       508     6.58834
       512     6.63538
       516     6.68685
       520     6.74071
       524     6.79361
       528     6.84472
       532     6.89173
       536     6.94316
       540     6.99698
       544     7.04989
       548     7.10158
       552     7.14834
       556     7.20002
       560     7.25419
       564     7.30701
       568     7.35907
       572     7.40549
       576      7.4572
       580     7.51114
       584     7.56378
       588     7.61603
       592     7.66267
       596     7.71442
       600     7.76792
       604     7.82031
       608     7.87257
       612     7.91873
       616       7.971
       620     8.02493
       624     8.07714
       628     8.12938
       632     8.17497
       636     8.22771
       640      8.2818
       644     8.33438
       648     8.38608
       652     8.43144
       656     8.48418
       660     8.53855
       664     8.59085
       668     8.64233
       672     8.68743
       676     8.74007
       680     8.79485
       684     8.84659
       688     8.89765
       692     8.94293
       696      8.9957
       700     9.05029
       704     9.10221
       708     9.15292
       712     9.19857
       716     9.25138
       720     9.30569
       724     9.35768
       728     9.40816
       732     9.45381
       736     9.50676
       740     9.56079
       744     9.61277
       748     9.66329
       752     9.70825
       756     9.76129
       760     9.81484
       764     9.86718
       768     9.91776
       772     9.96223
       776     10.0152
       780     10.0692
       784     10.1215
       788     10.1719
       792     10.2164
       796     10.2695
       800     10.3238
       804     10.3761
       808     10.4269
       812     10.4708
       816     10.5237
       820     10.5779
       824     10.6306
       828     10.6813
       832     10.7253
       836     10.7783
       840     10.8329
       844     10.8852
       848     10.9354
       852      10.979
       856     11.0319
       860     11.0865
       864     11.1391
       868     11.1893
       872     11.2333
       876     11.2864
       880     11.3413
       884     11.3939
       888     11.4441
       892     11.4871
       896     11.5403
       900     11.5955
       904     11.6479
       908     11.6981
       912     11.7408
       916     11.7944
       920     11.8495
       924      11.902
       928     11.9521
       932     11.9945
       936     12.0485
       940     12.1035
       944     12.1556
       948     12.2064
       952     12.2484
       956     12.3026
       960     12.3575
       964     12.4102
       968     12.4611
       972     12.5034
       976     12.5569
       980     12.6123
       984     12.6652
       988     12.7165
       992     12.7588
       996     12.8129
      1000     12.8683
      1004     12.9216
      1008     12.9726
      1012     13.0144
      1016     13.0688
      1020     13.1242
      1024     13.1784
      1028     13.2291
      1032     13.2707
      1036     13.3255
      1040     13.3814
      1044     13.4359
      1048     13.4862
      1052     13.5277
      1056     13.5825
      1060     13.6389
      1064     13.6933
      1068     13.7433
      1072     13.7848
      1076     13.8399
      1080     13.8962
      1084     13.9509
      1088     14.0002
      1092     14.0417
      1096     14.0976
      1100     14.1542
      1104     14.2089
      1108     14.2575
      1112     14.2986
      1116     14.3545
      1120     14.4108
      1124     14.4658
      1128     14.5142
      1132     14.5551
      1136     14.6117
      1140     14.6678
      1144     14.7229
      1148     14.7715
      1152      14.812
      1156     14.8688
      1160     14.9249
      1164     14.9801
      1168     15.0292
      1172     15.0694
      1176     15.1264
      1180     15.1825
      1184     15.2375
      1188     15.2869
      1192     15.3271
      1196     15.3846
      1200     15.4399
      1204      15.495
      1208     15.5445
      1212     15.5845
      1216     15.6419
      1220     15.6973
      1224     15.7523
      1228     15.8014
      1232     15.8415
      1236     15.8989
      1240     15.9546
      1244     16.0096
      1248     16.0592
      1252     16.0991
      1256     16.1563
      1260     16.2119
      1264     16.2667
      1268     16.3159
      1272     16.3565
      1276     16.4132
      1280      16.469
      1284     16.5238
      1288     16.5738
      1292     16.6139
      1296     16.6704
      1300     16.7263
      1304      16.782
      1308     16.8315
      1312     16.8713
      1316     16.9286
      1320     16.9837
      1324     17.0398
      1328     17.0893
      1332     17.1291
      1336     17.1864
      1340     17.2414
      1344     17.2978
      1348     17.3477
      1352     17.3866
      1356     17.4438
      1360      17.499
      1364     17.5553
      1368     17.6055
      1372     17.6441
      1376     17.7015
      1380     17.7571
      1384     17.8136
      1388     17.8637
      1392     17.9022
      1396       17.96
      1400     18.0157
      1404     18.0727
      1408     18.1231
      1412     18.1614
      1416     18.2199
      1420     18.2751
      1424     18.3321
      1428     18.3827
      1432     18.4206
      1436     18.4791
      1440     18.5352
      1444     18.5922
      1448     18.6433
      1452     18.6806
      1456     18.7396
      1460     18.7952
      1464     18.8518
      1468     18.9033
      1472     18.9405
      1476     18.9994
      1480      19.055
      1484     19.1118
      1488     19.1629
      1492     19.2001
      1496     19.2593
      1500     19.3153
      1504     19.3721
      1508     19.4234
      1512     19.4611
      1516       19.52
      1520     19.5765
      1524     19.6329
      1528     19.6849
      1532     19.7224
      1536     19.7813
      1540     19.8374
      1544     19.8937
      1548      19.945
      1552     19.9829
      1556     20.0415
      1560     20.0976
      1564     20.1533
      1568     20.2047
      1572     20.2425
      1576     20.2998
      1580     20.3558
      1584     20.4119
      1588     20.4633
      1592     20.5009
      1596     20.5581
      1600     20.6147
      1604     20.6703
      1608     20.7223
      1612     20.7596
      1616     20.8174
      1620     20.8737
      1624     20.9292
      1628     20.9815
      1632      21.018
      1636     21.0758
      1640     21.1325
      1644     21.1876
      1648     21.2395
      1652      21.276
      1656     21.3332
      1660     21.3901
      1664     21.4458
      1668     21.4975
      1672     21.5333
      1676     21.5913
      1680      21.648
      1684      21.704
      1688     21.7551
      1692     21.7906
      1696      21.848
      1700     21.9053
      1704     21.9613
      1708     22.0126
      1712     22.0477
      1716     22.1053
      1720     22.1628
      1724     22.2195
      1728     22.2703
      1732      22.305
      1736      22.363
      1740     22.4206
      1744     22.4775
      1748     22.5281
      1752     22.5622
      1756     22.6198
      1760     22.6788
      1764     22.7355
      1768     22.7862
      1772     22.8202
      1776     22.8785
      1780      22.937
      1784      22.994
      1788     23.0448
      1792     23.0778
      1796     23.1363
      1800     23.1946
      1804     23.2519
      1808     23.3023
      1812     23.3353
      1816     23.3953
      1820     23.4524
      1824       23.51
      1828     23.5599
      1832     23.5921
      1836      23.653
      1840     23.7102
      1844     23.7672
      1848      23.817
      1852     23.8498
      1856     23.9095
      1860     23.9672
      1864     24.0244
      1868     24.0744
      1872     24.1061
      1876     24.1663
      1880     24.2244
      1884     24.2824
      1888     24.3324
      1892     24.3643
      1896     24.4234
      1900     24.4816
      1904     24.5393
      1908     24.5895
      1912     24.6215
      1916      24.681
      1920     24.7392
      1924      24.799
      1928     24.8486
      1932     24.8803
      1936     24.9395
      1940     24.9982
      1944      25.059
      1948     25.1081
      1952     25.1405
      1956     25.1997
      1960     25.2579
      1964     25.3182
      1968     25.3674
      1972     25.4002
      1976     25.4592
      1980     25.5166
      1984     25.5769
      1988     25.6263
      1992     25.6592
      1996     25.7182
      2000     25.7756
      2004     25.8358
      2008     25.8851
      2012     25.9187
      2016     25.9767
      2020     26.0344
      2024     26.0947
      2028     26.1444
      2032     26.1776
      2036     26.2352
      2040     26.2926
      2044     26.3527
      2048     26.4027
      2052     26.4356
      2056     26.4927
      2060     26.5508
      2064     26.6106
      2068     26.6608
      2072     26.6936
      2076     26.7518
      2080     26.8097
      2084      26.869
      2088      26.919
      2092     26.9515
      2096     27.0091
      2100     27.0682
      2104     27.1282
      2108     27.1793
      2112     27.2109
      2116     27.2693
      2120     27.3276
      2124     27.3877
      2128     27.4395
      2132      27.471
      2136     27.5294
      2140     27.5869
      2144     27.6476
      2148     27.7005
      2152     27.7302
      2156     27.7897
      2160      27.847
      2164     27.9076
      2168     27.9593
      2172     27.9899
      2176     28.0498
      2180     28.1068
      2184     28.1669
      2188     28.2196
      2192     28.2508
      2196     28.3093
      2200     28.3671
      2204     28.4276
      2208     28.4804
      2212     28.5112
      2216     28.5696
      2220     28.6287
      2224     28.6884
      2228      28.741
      2232     28.7715
      2236     28.8308
      2240     28.8895
      2244     28.9502
      2248     29.0027
      2252     29.0331
      2256     29.0925
      2260     29.1516
      2264     29.2113
      2268     29.2638
      2272     29.2938
      2276     29.3541
      2280     29.4137
      2284     29.4738
      2288     29.5244
      2292     29.5554
      2296     29.6157
      2300     29.6754
      2304     29.7346
      2308     29.7854
      2312     29.8163
      2316      29.876
      2320     29.9356
      2324     29.9953
      2328     30.0465
      2332     30.0765
      2336     30.1369
      2340     30.1971
      2344     30.2566
      2348     30.3076
      2352     30.3371
      2356     30.3966
      2360     30.4575
      2364     30.5177
      2368     30.5679
      2372     30.5967
      2376     30.6571
      2380     30.7186
      2384     30.7786
      2388     30.8299
      2392     30.8575
      2396     30.9174
      2400      30.979
      2404     31.0392
      2408     31.0903
      2412     31.1173
      2416     31.1787
      2420     31.2403
      2424     31.3008
      2428     31.3524
      2432     31.3787
      2436     31.4404
      2440     31.5007
      2444     31.5611
      2448      31.613
      2452      31.639
      2456     31.7008
      2460     31.7621
      2464     31.8229
      2468     31.8746
      2472      31.901
      2476     31.9624
      2480     32.0236
      2484     32.0842
      2488     32.1365
      2492     32.1623
      2496     32.2241
      2500     32.2853
      2504     32.3462
      2508     32.3971
      2512     32.4235
      2516     32.4862
      2520     32.5464
      2524     32.6067
      2528     32.6575
      2532     32.6837
      2536     32.7474
      2540     32.8071
      2544     32.8684
      2548      32.918
      2552     32.9453
      2556     33.0084
      2560     33.0669
      2564     33.1281
      2568     33.1784
      2572     33.2048
      2576     33.2683
      2580     33.3266
      2584      33.388
      2588     33.4388
      2592     33.4644
      2596     33.5277
      2600     33.5858
      2604     33.6465
      2608     33.6983
      2612     33.7227
      2616     33.7868
      2620     33.8433
      2624     33.9055
      2628     33.9566
      2632     33.9802
      2636     34.0451
      2640     34.1014
      2644     34.1646
      2648     34.2158
      2652     34.2393
      2656     34.3029
      2660     34.3607
      2664     34.4229
      2668     34.4735
      2672     34.4982
      2676      34.561
      2680      34.619
      2684     34.6821
      2688     34.7323
      2692     34.7565
      2696     34.8199
      2700     34.8774
      2704     34.9401
      2708     34.9899
      2712      35.014
      2716     35.0793
      2720     35.1353
      2724      35.199
      2728     35.2474
      2732     35.2704
      2736     35.3365
      2740      35.393
      2744     35.4578
      2748     35.5051
      2752     35.5289
      2756     35.5952
      2760     35.6518
      2764     35.7163
      2768     35.7629
      2772     35.7863
      2776     35.8521
      2780     35.9091
      2784     35.9724
      2788     36.0184
      2792     36.0421
      2796     36.1086
      2800     36.1662
      2804     36.2294
      2808     36.2763
      2812     36.2995
      2816     36.3658
      2820     36.4247
      2824     36.4872
      2828     36.5337
      2832     36.5562
      2836     36.6224
      2840     36.6807
      2844     36.7454
      2848      36.791
      2852     36.8131
      2856     36.8802
      2860     36.9375
      2864     37.0025
      2868     37.0469
      2872     37.0688
      2876     37.1361
      2880     37.1951
      2884     37.2592
      2888     37.3046
      2892     37.3255
      2896     37.3932
      2900      37.452
      2904     37.5169
      2908     37.5615
      2912     37.5814
      2916     37.6496
      2920     37.7081
      2924     37.7738
      2928      37.819
      2932     37.8377
      2936     37.9056
      2940     37.9637
      2944     38.0301
      2948     38.0749
      2952     38.0929
      2956     38.1614
      2960     38.2207
      2964     38.2859
      2968     38.3313
      2972     38.3485
      2976     38.4169
      2980     38.4761
      2984     38.5417
      2988     38.5864
      2992     38.6039
      2996      38.673
      3000     38.7315
      3004     38.7977
      3008     38.8426
      3012     38.8611
      3016     38.9297
      3020     38.9876
      3024     39.0542
      3028     39.0982
      3032     39.1173
      3036     39.1867
      3040     39.2435
      3044     39.3095
      3048      39.354
      3052     39.3718
      3056     39.4421
      3060     39.4996
      3064     39.5647
      3068     39.6097
      3072      39.627
      3076     39.6985
      3080     39.7558
      3084     39.8199
      3088     39.8661
      3092     39.8835
      3096     39.9563
      3100     40.0126
      3104     40.0792
      3108     40.1239
      3112     40.1399
      3116     40.2153
      3120     40.2719
      3124     40.3369
      3128     40.3818
      3132     40.3987
      3136     40.4734
      3140     40.5313
      3144     40.5965
      3148     40.6409
      3152      40.657
      3156     40.7326
      3160     40.7906
      3164     40.8563
      3168     40.8992
      3172     40.9141
      3176     40.9914
      3180     41.0494
      3184     41.1154
      3188       41.16
      3192     41.1737
      3196     41.2527
      3200       41.31
      3204     41.3757
      3208     41.4221
      3212     41.4365
      3216     41.5146
      3220     41.5725
      3224     41.6387
      3228      41.684
      3232     41.6979
      3236     41.7748
      3240     41.8341
      3244     41.9006
      3248     41.9468
      3252     41.9599
      3256      42.037
      3260     42.0967
      3264     42.1612
      3268     42.2101
      3272     42.2219
      3276     42.2975
      3280     42.3586
      3284     42.4227
      3288     42.4716
      3292     42.4847
      3296     42.5594
      3300     42.6207
      3304     42.6842
      3308     42.7344
      3312     42.7455
      3316     42.8226
      3320     42.8829
      3324     42.9473
      3328     42.9964
      3332     43.0069
      3336     43.0857
      3340     43.1459
      3344     43.2103
      3348     43.2577
      3352     43.2678
      3356     43.3481
      3360      43.409
      3364     43.4737
      3368     43.5198
      3372     43.5314
      3376     43.6121
      3380      43.672
      3384     43.7365
      3388     43.7837
      3392     43.7968
      3396     43.8776
      3400     43.9365
      3404     44.0003
      3408     44.0485
      3412     44.0601
      3416     44.1403
      3420     44.2005
      3424     44.2632
      3428     44.3131
      3432     44.3243
      3436     44.4031
      3440     44.4634
      3444     44.5273
