# MSD gathered over 10000 ps with 501 restarts
# Diffusion constants fitted from time 1000 to 9000 ps
# D[       SOL] = 2.8234 (+/- 0.2409) (1e-5 cm^2/s)
         0           0
         4   0.0736007
         8    0.137868
        12    0.202749
        16    0.265912
        20    0.330185
        24     0.39388
        28    0.456485
        32    0.520823
        36    0.584638
        40    0.648409
        44    0.712288
        48    0.774838
        52    0.839419
        56    0.902976
        60    0.966413
        64     1.03051
        68     1.09313
        72     1.15751
        76     1.22081
        80     1.28421
        84      1.3487
        88       1.411
        92     1.47552
        96     1.53851
       100     1.60154
       104     1.66669
       108     1.72938
       112     1.79345
       116     1.85656
       120     1.91821
       124     1.98341
       128     2.04575
       132     2.11028
       136     2.17357
       140     2.23586
       144      2.3016
       148     2.36395
       152     2.42826
       156     2.49181
       160     2.55362
       164     2.61967
       168     2.68259
       172     2.74674
       176     2.81039
       180     2.87203
       184     2.93853
       188     3.00113
       192     3.06489
       196     3.12832
       200     3.19022
       204      3.2563
       208     3.31859
       212     3.38232
       216     3.44572
       220     3.50707
       224     3.57299
       228     3.63598
       232     3.69921
       236     3.76284
       240     3.82357
       244     3.89008
       248     3.95282
       252     4.01613
       256     4.07906
       260     4.13952
       264     4.20674
       268     4.26909
       272     4.33275
       276     4.39565
       280     4.45578
       284     4.52388
       288     4.58587
       292     4.64927
       296     4.71264
       300     4.77288
       304     4.84119
       308     4.90293
       312     4.96616
       316     5.02955
       320     5.08898
       324     5.15747
       328     5.21921
       332     5.28264
       336     5.34593
       340     5.40448
       344     5.47367
       348     5.53523
       352     5.59865
       356     5.66156
       360     5.71981
       364     5.78934
       368     5.85077
       372     5.91483
       376     5.97816
       380     6.03624
       384     6.10675
       388     6.16779
       392     6.23223
       396     6.29617
       400     6.35394
       404     6.42511
       408     6.48619
       412      6.5509
       416     6.61429
       420     6.67187
       424     6.74323
       428     6.80391
       432     6.86846
       436     6.93199
       440     6.98969
       444     7.06201
       448     7.12201
       452     7.18722
       456     7.25083
       460      7.3081
       464     7.38075
       468     7.44088
       472     7.50615
       476     7.56988
       480     7.62643
       484      7.6993
       488     7.75916
       492     7.82511
       496     7.88817
       500     7.94495
       504     8.01785
       508     8.07807
       512     8.14419
       516     8.20698
       520     8.26293
       524      8.3358
       528     8.39594
       532     8.46211
       536     8.52486
       540     8.58027
       544     8.65317
       548     8.71347
       552     8.77971
       556     8.84279
       560     8.89735
       564     8.97064
       568     9.03055
       572     9.09739
       576     9.16041
       580     9.21517
       584     9.28852
       588     9.34771
       592     9.41456
       596     9.47739
       600     9.53206
       604     9.60499
       608     9.66475
       612     9.73134
       616     9.79421
       620     9.84819
       624     9.92307
       628     9.98305
       632      10.049
       636     10.1116
       640     10.1657
       644     10.2403
       648     10.2999
       652     10.3661
       656     10.4296
       660     10.4837
       664     10.5591
       668     10.6178
       672     10.6842
       676     10.7481
       680     10.8015
       684     10.8772
       688     10.9364
       692     11.0024
       696     11.0665
       700     11.1191
       704     11.1951
       708     11.2537
       712     11.3204
       716     11.3851
       720     11.4373
       724     11.5142
       728     11.5731
       732     11.6398
       736     11.7047
       740     11.7569
       744     11.8342
       748     11.8921
       752     11.9591
       756      12.024
       760     12.0759
       764     12.1545
       768     12.2117
       772     12.2799
       776     12.3441
       780     12.3957
       784     12.4743
       788     12.5317
       792     12.5996
       796      12.664
       800      12.715
       804     12.7939
       808     12.8511
       812     12.9197
       816      12.984
       820     13.0345
       824      13.114
       828     13.1716
       832     13.2402
       836     13.3046
       840     13.3545
       844     13.4342
       848     13.4912
       852     13.5601
       856     13.6249
       860     13.6745
       864     13.7539
       868     13.8119
       872      13.881
       876     13.9452
       880     13.9949
       884     14.0738
       888      14.131
       892     14.2013
       896      14.265
       900     14.3153
       904     14.3948
       908     14.4521
       912     14.5232
       916     14.5871
       920     14.6365
       924     14.7159
       928     14.7737
       932     14.8451
       936     14.9093
       940      14.958
       944     15.0377
       948     15.0952
       952     15.1662
       956     15.2302
       960     15.2791
       964     15.3581
       968     15.4158
       972     15.4874
       976     15.5513
       980     15.5993
       984      15.679
       988     15.7362
       992     15.8084
       996     15.8718
      1000     15.9194
      1004     15.9991
      1008     16.0561
      1012     16.1295
      1016     16.1928
      1020       16.24
      1024     16.3196
      1028      16.376
      1032       16.45
      1036     16.5129
      1040     16.5599
      1044     16.6401
      1048     16.6959
      1052     16.7696
      1056      16.833
      1060     16.8802
      1064     16.9599
      1068     17.0165
      1072     17.0897
      1076      17.153
      1080     17.1997
      1084     17.2803
      1088     17.3366
      1092     17.4109
      1096     17.4748
      1100     17.5208
      1104      17.602
      1108     17.6588
      1112     17.7331
      1116     17.7966
      1120     17.8422
      1124     17.9232
      1128     17.9801
      1132     18.0554
      1136     18.1178
      1140     18.1625
      1144     18.2443
      1148      18.301
      1152      18.377
      1156     18.4389
      1160     18.4832
      1164     18.5659
      1168     18.6218
      1172     18.6969
      1176     18.7598
      1180     18.8033
      1184     18.8866
      1188     18.9431
      1192     19.0177
      1196     19.0811
      1200     19.1242
      1204     19.2078
      1208     19.2634
      1212     19.3382
      1216     19.4014
      1220     19.4443
      1224     19.5283
      1228      19.583
      1232     19.6587
      1236     19.7215
      1240     19.7643
      1244     19.8488
      1248     19.9037
      1252     19.9797
      1256     20.0423
      1260     20.0841
      1264     20.1693
      1268     20.2247
      1272     20.3001
      1276     20.3626
      1280     20.4048
      1284     20.4906
      1288     20.5458
      1292     20.6213
      1296      20.684
      1300     20.7267
      1304      20.813
      1308     20.8671
      1312     20.9435
      1316     21.0053
      1320     21.0484
      1324     21.1353
      1328     21.1896
      1332     21.2665
      1336     21.3277
      1340     21.3707
      1344     21.4576
      1348     21.5121
      1352     21.5886
      1356     21.6504
      1360      21.693
      1364     21.7794
      1368     21.8343
      1372     21.9109
      1376     21.9736
      1380     22.0145
      1384     22.1018
      1388     22.1566
      1392     22.2329
      1396     22.2963
      1400      22.337
      1404      22.424
      1408     22.4777
      1412     22.5553
      1416     22.6189
      1420     22.6589
      1424     22.7467
      1428     22.7995
      1432     22.8769
      1436     22.9406
      1440      22.979
      1444     23.0681
      1448     23.1195
      1452     23.1975
      1456     23.2609
      1460     23.2986
      1464     23.3884
      1468     23.4395
      1472     23.5182
      1476     23.5818
      1480      23.619
      1484      23.709
      1488     23.7597
      1492      23.839
      1496     23.9021
      1500     23.9396
      1504     24.0292
      1508     24.0796
      1512     24.1593
      1516     24.2225
      1520     24.2597
      1524     24.3486
      1528     24.3996
      1532     24.4799
      1536     24.5425
      1540     24.5805
      1544     24.6687
      1548     24.7196
      1552     24.7999
      1556     24.8616
      1560        24.9
      1564     24.9888
      1568     25.0381
      1572      25.119
      1576     25.1812
      1580     25.2177
      1584     25.3081
      1588     25.3568
      1592     25.4365
      1596     25.4997
      1600     25.5363
      1604      25.627
      1608      25.676
      1612     25.7559
      1616     25.8194
      1620     25.8552
      1624     25.9467
      1628     25.9953
      1632     26.0757
      1636     26.1392
      1640     26.1755
      1644     26.2676
      1648     26.3154
      1652     26.3965
      1656     26.4597
      1660     26.4957
      1664     26.5864
      1668     26.6339
      1672     26.7155
      1676     26.7787
      1680     26.8151
      1684     26.9055
      1688     26.9536
      1692     27.0344
      1696     27.0974
      1700     27.1334
      1704     27.2245
      1708      27.273
      1712     27.3547
      1716     27.4162
      1720     27.4534
      1724     27.5447
      1728     27.5925
      1732     27.6746
      1736     27.7363
      1740     27.7731
      1744     27.8656
      1748     27.9124
      1752     27.9959
      1756     28.0571
      1760     28.0934
      1764     28.1858
      1768     28.2322
      1772     28.3155
      1776     28.3773
      1780     28.4125
      1784     28.5058
      1788     28.5514
      1792      28.635
      1796     28.6971
      1800     28.7316
      1804      28.826
      1808     28.8714
      1812     28.9548
      1816     29.0163
      1820     29.0517
      1824      29.146
      1828     29.1902
      1832     29.2756
      1836     29.3378
      1840     29.3729
      1844     29.4673
      1848     29.5115
      1852     29.5973
      1856     29.6605
      1860      29.695
      1864     29.7899
      1868     29.8328
      1872     29.9195
      1876     29.9818
      1880     30.0162
      1884     30.1114
      1888     30.1546
      1892     30.2421
      1896      30.305
      1900     30.3383
      1904     30.4337
      1908      30.476
      1912     30.5629
      1916     30.6266
      1920     30.6587
      1924     30.7549
      1928     30.7963
      1932     30.8831
      1936     30.9459
      1940     30.9788
      1944      31.076
      1948      31.117
      1952      31.204
      1956     31.2666
      1960     31.2989
      1964     31.3974
      1968      31.438
      1972     31.5255
      1976     31.5883
      1980     31.6202
      1984     31.7195
      1988     31.7592
      1992     31.8469
      1996     31.9093
      2000     31.9402
      2004     32.0406
      2008     32.0807
      2012     32.1674
      2016     32.2301
      2020     32.2599
      2024     32.3618
      2028     32.4011
      2032     32.4877
      2036     32.5507
      2040     32.5806
      2044     32.6842
      2048     32.7211
      2052      32.807
      2056     32.8724
      2060     32.9012
      2064     33.0051
      2068     33.0423
      2072     33.1292
      2076     33.1946
      2080     33.2213
      2084     33.3264
      2088     33.3638
      2092     33.4519
      2096     33.5158
      2100     33.5439
      2104     33.6484
      2108     33.6856
      2112     33.7749
      2116     33.8367
      2120     33.8647
      2124     33.9692
      2128     34.0062
      2132     34.0968
      2136     34.1589
      2140     34.1854
      2144     34.2917
      2148     34.3273
      2152     34.4181
      2156     34.4801
      2160     34.5075
      2164     34.6143
      2168     34.6495
      2172       34.74
      2176     34.8022
      2180      34.829
      2184      34.937
      2188      34.972
      2192     35.0604
      2196     35.1243
      2200     35.1507
      2204     35.2594
      2208     35.2934
      2212     35.3827
      2216     35.4458
      2220     35.4721
      2224     35.5821
      2228     35.6157
      2232     35.7053
      2236     35.7687
      2240     35.7952
      2244     35.9042
      2248     35.9382
      2252     36.0276
      2256     36.0916
      2260     36.1175
      2264     36.2265
      2268     36.2588
      2272     36.3504
      2276     36.4139
      2280     36.4378
      2284     36.5486
      2288     36.5802
      2292     36.6718
      2296     36.7363
      2300     36.7598
      2304     36.8721
      2308     36.9031
      2312     36.9946
      2316     37.0607
      2320     37.0803
      2324     37.1953
      2328     37.2255
      2332      37.316
      2336     37.3826
      2340     37.4012
      2344      37.517
      2348     37.5484
      2352     37.6379
      2356      37.704
      2360     37.7231
      2364     37.8403
      2368     37.8707
      2372     37.9607
      2376     38.0257
      2380      38.045
      2384     38.1626
      2388     38.1934
      2392     38.2819
      2396     38.3468
      2400     38.3668
      2404     38.4843
      2408     38.5135
      2412     38.6029
      2416     38.6676
      2420     38.6874
      2424     38.8055
      2428     38.8338
      2432     38.9224
      2436     38.9881
      2440      39.007
      2444     39.1257
      2448     39.1539
      2452     39.2433
      2456     39.3087
      2460     39.3263
      2464     39.4473
      2468     39.4753
      2472     39.5644
      2476     39.6301
      2480     39.6476
      2484      39.768
      2488     39.7951
      2492     39.8836
      2496     39.9502
      2500     39.9675
      2504     40.0868
      2508     40.1166
      2512     40.2064
      2516      40.272
      2520     40.2891
      2524     40.4094
      2528     40.4386
      2532     40.5282
      2536     40.5952
      2540      40.612
      2544     40.7315
      2548     40.7615
      2552     40.8518
      2556     40.9176
      2560     40.9359
      2564     41.0549
      2568     41.0848
      2572     41.1736
      2576     41.2414
      2580     41.2587
      2584     41.3788
      2588     41.4081
      2592     41.4974
      2596     41.5639
      2600     41.5811
      2604     41.7036
      2608     41.7312
      2612     41.8195
      2616     41.8875
      2620     41.9049
      2624     42.0274
      2628     42.0557
      2632     42.1444
      2636     42.2135
      2640     42.2276
      2644     42.3524
      2648     42.3802
      2652     42.4709
      2656     42.5395
      2660     42.5527
      2664     42.6782
      2668     42.7059
      2672     42.7973
      2676     42.8647
      2680     42.8776
      2684      43.004
      2688     43.0312
      2692     43.1238
      2696     43.1919
      2700     43.2033
      2704     43.3303
      2708     43.3551
      2712      43.449
      2716     43.5182
      2720     43.5295
      2724     43.6576
      2728     43.6789
      2732      43.773
      2736     43.8442
      2740     43.8534
      2744     43.9815
      2748     44.0048
      2752     44.0957
      2756     44.1675
      2760     44.1751
      2764     44.3055
      2768      44.328
      2772     44.4198
      2776     44.4927
      2780     44.4991
      2784     44.6281
      2788     44.6527
      2792     44.7422
      2796     44.8174
      2800     44.8226
      2804     44.9511
      2808     44.9761
      2812     45.0641
      2816     45.1411
      2820     45.1448
      2824     45.2736
      2828     45.2993
      2832     45.3872
      2836     45.4641
      2840     45.4668
      2844     45.5978
      2848     45.6223
      2852     45.7103
      2856     45.7887
      2860     45.7891
      2864     45.9191
      2868     45.9451
      2872     46.0337
      2876     46.1099
      2880     46.1108
      2884     46.2426
      2888     46.2681
      2892     46.3556
      2896     46.4303
      2900     46.4334
      2904     46.5639
      2908     46.5878
      2912     46.6761
      2916      46.751
      2920      46.753
      2924     46.8837
      2928     46.9073
      2932     46.9954
      2936     47.0699
      2940     47.0707
      2944     47.2048
      2948     47.2271
      2952     47.3146
      2956     47.3895
      2960     47.3894
      2964     47.5257
      2968     47.5456
      2972     47.6356
      2976     47.7076
      2980     47.7083
      2984     47.8436
      2988     47.8646
      2992     47.9554
      2996      48.027
      3000     48.0287
      3004     48.1645
      3008     48.1836
      3012     48.2743
      3016     48.3449
      3020     48.3472
      3024     48.4838
      3028     48.5006
      3032     48.5929
      3036     48.6637
      3040      48.665
      3044     48.8015
      3048     48.8188
      3052     48.9135
      3056     48.9804
      3060     48.9844
      3064     49.1197
      3068     49.1386
      3072     49.2339
      3076     49.2988
      3080     49.3028
      3084     49.4368
      3088     49.4571
      3092     49.5525
      3096     49.6167
      3100     49.6217
      3104     49.7531
      3108      49.773
      3112     49.8701
      3116     49.9333
      3120     49.9395
      3124     50.0713
      3128     50.0923
      3132     50.1902
      3136     50.2516
      3140     50.2589
      3144     50.3889
      3148     50.4114
      3152     50.5094
      3156     50.5715
      3160     50.5785
      3164     50.7074
      3168     50.7304
      3172     50.8278
      3176     50.8901
      3180     50.8988
      3184     51.0252
      3188     51.0478
      3192     51.1476
      3196     51.2107
      3200     51.2163
      3204     51.3455
      3208     51.3671
      3212     51.4676
      3216     51.5285
      3220     51.5346
      3224     51.6664
      3228     51.6847
      3232     51.7871
      3236     51.8496
      3240     51.8547
      3244     51.9857
      3248     52.0062
      3252     52.1098
      3256     52.1701
      3260      52.176
      3264     52.3068
      3268      52.328
      3272     52.4326
      3276     52.4925
      3280     52.4991
      3284     52.6279
      3288     52.6499
      3292     52.7537
      3296     52.8131
      3300     52.8225
      3304     52.9505
      3308     52.9729
      3312     53.0766
      3316     53.1387
      3320     53.1479
      3324     53.2745
      3328     53.2978
      3332      53.401
      3336     53.4641
      3340     53.4727
      3344     53.5987
      3348     53.6217
      3352     53.7238
      3356     53.7877
      3360     53.7968
      3364     53.9215
      3368     53.9456
      3372     54.0496
      3376     54.1104
      3380      54.121
      3384     54.2476
      3388     54.2708
      3392      54.374
      3396      54.434
      3400     54.4471
      3404     54.5756
      3408      54.598
      3412     54.7022
      3416       54.76
      3420     54.7749
      3424     54.9006
      3428     54.9246
      3432      55.029
      3436     55.0869
      3440     55.1012
      3444     55.2285
