# MSD gathered over 10000 ps with 501 restarts
# Diffusion constants fitted from time 1000 to 9000 ps
# D[       SOL] = 5.3145 (+/- 0.2105) (1e-5 cm^2/s)
         0           0
         4    0.139561
         8    0.269484
        12    0.400018
        16    0.531953
        20    0.663311
        24    0.794255
        28    0.923681
        32     1.05434
        36     1.18463
        40     1.31526
        44      1.4459
        48      1.5755
        52     1.70688
        56     1.83639
        60     1.96725
        64     2.09875
        68     2.22834
        72     2.35879
        76     2.48894
        80     2.62041
        84     2.75188
        88     2.88133
        92     3.01153
        96     3.14055
       100     3.27134
       104     3.40315
       108     3.53174
       112     3.66216
       116     3.79005
       120     3.92115
       124     4.05269
       128     4.18185
       132     4.31114
       136      4.4394
       140     4.57091
       144     4.70323
       148     4.83191
       152      4.9604
       156      5.0891
       160     5.22076
       164     5.35389
       168     5.48197
       172     5.61215
       176     5.74012
       180     5.87233
       184     6.00608
       188     6.13476
       192     6.26414
       196     6.39168
       200     6.52341
       204     6.65803
       208     6.78647
       212     6.91655
       216     7.04428
       220     7.17641
       224     7.31121
       228     7.43917
       232     7.56896
       236      7.6961
       240      7.8276
       244     7.96265
       248     8.09051
       252     8.21968
       256     8.34561
       260     8.47756
       264     8.61203
       268     8.74057
       272     8.86928
       276     8.99508
       280     9.12552
       284     9.26145
       288     9.38938
       292     9.51838
       296     9.64439
       300     9.77571
       304     9.91065
       308     10.0407
       312     10.1696
       316     10.2961
       320      10.427
       324     10.5626
       328     10.6915
       332     10.8206
       336     10.9471
       340     11.0792
       344      11.215
       348     11.3429
       352     11.4733
       356     11.5995
       360     11.7325
       364     11.8682
       368     11.9978
       372     12.1283
       376     12.2541
       380     12.3883
       384     12.5253
       388     12.6548
       392     12.7846
       396     12.9109
       400      13.045
       404     13.1824
       408     13.3109
       412       13.44
       416     13.5652
       420     13.7001
       424     13.8387
       428     13.9671
       432     14.0972
       436     14.2207
       440     14.3558
       444     14.4948
       448     14.6234
       452      14.754
       456     14.8768
       460      15.013
       464     15.1517
       468     15.2802
       472       15.41
       476     15.5339
       480     15.6701
       484     15.8105
       488     15.9384
       492     16.0685
       496     16.1918
       500     16.3284
       504     16.4692
       508      16.596
       512     16.7265
       516     16.8492
       520     16.9862
       524     17.1282
       528     17.2534
       532     17.3847
       536     17.5071
       540     17.6447
       544     17.7867
       548     17.9112
       552     18.0411
       556     18.1642
       560     18.3028
       564     18.4452
       568     18.5697
       572     18.6986
       576     18.8217
       580     18.9603
       584     19.1029
       588     19.2266
       592     19.3553
       596     19.4777
       600     19.6158
       604     19.7584
       608     19.8817
       612     20.0102
       616      20.133
       620     20.2721
       624     20.4133
       628     20.5363
       632     20.6648
       636     20.7887
       640     20.9272
       644     21.0688
       648     21.1918
       652     21.3206
       656     21.4444
       660     21.5835
       664     21.7251
       668     21.8477
       672     21.9775
       676     22.0992
       680     22.2392
       684     22.3809
       688     22.5034
       692     22.6328
       696     22.7554
       700     22.8944
       704     23.0362
       708     23.1582
       712     23.2879
       716     23.4104
       720     23.5479
       724     23.6893
       728     23.8122
       732     23.9423
       736     24.0663
       740     24.2042
       744     24.3467
       748     24.4683
       752     24.5996
       756     24.7219
       760     24.8597
       764     25.0014
       768     25.1243
       772     25.2557
       776     25.3777
       780     25.5149
       784     25.6574
       788     25.7817
       792     25.9117
       796     26.0341
       800     26.1707
       804     26.3125
       808     26.4369
       812     26.5675
       816     26.6892
       820     26.8258
       824     26.9679
       828     27.0929
       832     27.2238
       836     27.3451
       840      27.483
       844     27.6261
       848     27.7494
       852       27.88
       856     28.0008
       860     28.1382
       864     28.2809
       868     28.4039
       872     28.5352
       876     28.6554
       880     28.7925
       884     28.9358
       888     29.0587
       892     29.1895
       896     29.3079
       900     29.4465
       904     29.5914
       908     29.7146
       912     29.8447
       916     29.9633
       920     30.1026
       924     30.2491
       928     30.3729
       932     30.5037
       936     30.6217
       940     30.7592
       944     30.9068
       948     31.0314
       952     31.1617
       956     31.2784
       960     31.4167
       964     31.5623
       968     31.6864
       972     31.8171
       976     31.9351
       980     32.0717
       984     32.2176
       988     32.3415
       992      32.472
       996      32.588
      1000     32.7246
      1004     32.8717
      1008     32.9945
      1012     33.1236
      1016     33.2403
      1020     33.3767
      1024     33.5237
      1028     33.6475
      1032     33.7761
      1036     33.8931
      1040     34.0301
      1044     34.1773
      1048     34.3016
      1052     34.4288
      1056     34.5454
      1060     34.6825
      1064     34.8303
      1068      34.952
      1072     35.0794
      1076     35.1976
      1080     35.3338
      1084     35.4801
      1088     35.6033
      1092     35.7314
      1096     35.8491
      1100     35.9847
      1104     36.1327
      1108     36.2559
      1112      36.385
      1116     36.5033
      1120     36.6388
      1124     36.7869
      1128     36.9112
      1132       37.04
      1136     37.1577
      1140     37.2928
      1144     37.4421
      1148     37.5662
      1152     37.6965
      1156     37.8109
      1160     37.9468
      1164     38.0956
      1168     38.2187
      1172     38.3504
      1176     38.4648
      1180     38.6006
      1184     38.7476
      1188     38.8733
      1192     39.0037
      1196     39.1197
      1200     39.2546
      1204     39.4015
      1208     39.5269
      1212      39.658
      1216     39.7725
      1220     39.9079
      1224     40.0544
      1228     40.1793
      1232     40.3107
      1236     40.4242
      1240     40.5606
      1244      40.706
      1248     40.8321
      1252      40.963
      1256     41.0752
      1260     41.2139
      1264     41.3609
      1268      41.485
      1272     41.6162
      1276     41.7278
      1280     41.8662
      1284     42.0109
      1288     42.1336
      1292     42.2658
      1296     42.3751
      1300      42.515
      1304     42.6619
      1308     42.7831
      1312     42.9146
      1316     43.0215
      1320     43.1648
      1324     43.3105
      1328     43.4299
      1332     43.5632
      1336     43.6698
      1340     43.8123
      1344     43.9585
      1348     44.0778
      1352      44.211
      1356     44.3179
      1360     44.4601
      1364     44.6084
      1368      44.729
      1372     44.8626
      1376     44.9678
      1380     45.1092
      1384     45.2574
      1388     45.3801
      1392     45.5124
      1396     45.6188
      1400     45.7599
      1404     45.9077
      1408     46.0307
      1412     46.1648
      1416     46.2724
      1420     46.4136
      1424     46.5612
      1428      46.684
      1432     46.8172
      1436     46.9232
      1440     47.0666
      1444     47.2128
      1448     47.3367
      1452     47.4714
      1456     47.5759
      1460     47.7185
      1464     47.8677
      1468     47.9896
      1472     48.1237
      1476     48.2277
      1480     48.3696
      1484       48.52
      1488     48.6426
      1492     48.7735
      1496     48.8793
      1500     49.0203
      1504     49.1725
      1508     49.2946
      1512     49.4276
      1516     49.5314
      1520     49.6758
      1524     49.8272
      1528     49.9486
      1532     50.0834
      1536     50.1862
      1540     50.3324
      1544     50.4842
      1548     50.6051
      1552     50.7388
      1556     50.8433
      1560     50.9875
      1564     51.1402
      1568     51.2622
      1572     51.3963
      1576     51.4987
      1580     51.6463
      1584     51.7987
      1588     51.9219
      1592     52.0561
      1596     52.1551
      1600     52.3043
      1604     52.4557
      1608     52.5803
      1612     52.7137
      1616     52.8116
      1620     52.9628
      1624     53.1137
      1628     53.2412
      1632     53.3716
      1636     53.4695
      1640      53.624
      1644     53.7728
      1648     53.8989
      1652     54.0303
      1656     54.1297
      1660     54.2838
      1664     54.4332
      1668     54.5577
      1672     54.6899
      1676     54.7908
      1680     54.9442
      1684     55.0931
      1688     55.2169
      1692     55.3483
      1696     55.4481
      1700     55.6023
      1704     55.7484
      1708     55.8715
      1712     56.0072
      1716     56.1027
      1720     56.2586
      1724     56.4054
      1728     56.5265
      1732     56.6638
      1736     56.7577
      1740     56.9144
      1744     57.0616
      1748     57.1847
      1752     57.3242
      1756     57.4169
      1760     57.5734
      1764     57.7201
      1768     57.8422
      1772     57.9828
      1776     58.0766
      1780     58.2335
      1784     58.3806
      1788     58.4983
      1792     58.6435
      1796     58.7357
      1800     58.8931
      1804     59.0387
      1808     59.1595
      1812     59.3041
      1816      59.396
      1820     59.5538
      1824     59.6983
      1828     59.8202
      1832     59.9643
      1836     60.0548
      1840     60.2157
      1844     60.3585
      1848     60.4796
      1852     60.6255
      1856     60.7156
      1860     60.8769
      1864      61.021
      1868     61.1409
      1872     61.2886
      1876     61.3782
      1880     61.5385
      1884     61.6841
      1888     61.8034
      1892     61.9524
      1896     62.0431
      1900     62.2039
      1904     62.3473
      1908     62.4669
      1912     62.6152
      1916     62.7059
      1920     62.8645
      1924     63.0087
      1928     63.1273
      1932      63.277
      1936     63.3666
      1940     63.5265
      1944     63.6664
      1948      63.785
      1952     63.9357
      1956     64.0254
      1960     64.1844
      1964       64.33
      1968     64.4467
      1972     64.5968
      1976     64.6881
      1980     64.8452
      1984     64.9933
      1988     65.1076
      1992     65.2592
      1996     65.3515
      2000     65.5092
      2004     65.6574
      2008      65.772
      2012     65.9232
      2016     66.0154
      2020     66.1757
      2024     66.3205
      2028     66.4363
      2032     66.5873
      2036      66.677
      2040     66.8405
      2044     66.9844
      2048      67.101
      2052     67.2513
      2056     67.3392
      2060     67.5068
      2064     67.6501
      2068     67.7693
      2072     67.9182
      2076     68.0049
      2080     68.1737
      2084     68.3186
      2088     68.4359
      2092     68.5865
      2096     68.6658
      2100     68.8384
      2104     68.9853
      2108     69.0983
      2112     69.2533
      2116     69.3317
      2120      69.502
      2124     69.6494
      2128     69.7614
      2132     69.9182
      2136     69.9976
      2140      70.168
      2144     70.3153
      2148     70.4273
      2152     70.5863
      2156     70.6621
      2160     70.8357
      2164     70.9827
      2168     71.0956
      2172     71.2549
      2176     71.3289
      2180     71.5036
      2184     71.6478
      2188      71.763
      2192     71.9217
      2196     71.9942
      2200     72.1721
      2204     72.3159
      2208     72.4337
      2212     72.5893
      2216      72.661
      2220     72.8387
      2224      72.982
      2228     73.1003
      2232     73.2565
      2236     73.3265
      2240     73.5072
      2244     73.6465
      2248     73.7662
      2252      73.922
      2256     73.9907
      2260     74.1722
      2264     74.3126
      2268     74.4304
      2272     74.5869
      2276     74.6567
      2280     74.8379
      2284     74.9752
      2288     75.0938
      2292     75.2502
      2296     75.3217
      2300     75.5026
      2304     75.6408
      2308     75.7558
      2312     75.9114
      2316      75.982
      2320      76.164
      2324     76.3007
      2328      76.416
      2332     76.5715
      2336      76.638
      2340     76.8223
      2344     76.9563
      2348     77.0742
      2352     77.2311
      2356     77.2948
      2360       77.48
      2364     77.6155
      2368     77.7309
      2372     77.8873
      2376     77.9533
      2380     78.1358
      2384     78.2725
      2388     78.3854
      2392     78.5474
      2396     78.6109
      2400      78.795
      2404     78.9285
      2408     79.0459
      2412     79.2085
      2416     79.2702
      2420     79.4547
      2424     79.5889
      2428     79.7038
      2432     79.8677
      2436     79.9295
      2440     80.1156
      2444     80.2465
      2448     80.3637
      2452     80.5243
      2456     80.5885
      2460     80.7748
      2464      80.903
      2468     81.0213
      2472     81.1794
      2476     81.2458
      2480     81.4338
      2484     81.5615
      2488     81.6805
      2492      81.838
      2496     81.9062
      2500     82.0931
      2504     82.2233
      2508     82.3402
      2512     82.4985
      2516     82.5684
      2520     82.7529
      2524     82.8858
      2528     83.0056
      2532     83.1593
      2536     83.2334
      2540     83.4146
      2544     83.5487
      2548     83.6659
      2552     83.8182
      2556     83.8933
      2560     84.0704
      2564     84.2067
      2568     84.3236
      2572     84.4783
      2576     84.5517
      2580     84.7295
      2584     84.8646
      2588     84.9801
      2592     85.1411
      2596     85.2123
      2600     85.3903
      2604       85.52
      2608     85.6353
      2612     85.7984
      2616     85.8699
      2620     86.0463
      2624     86.1753
      2628     86.2884
      2632      86.454
      2636     86.5236
      2640     86.6981
      2644     86.8261
      2648     86.9401
      2652     87.1035
      2656     87.1743
      2660     87.3523
      2664      87.478
      2668     87.5898
      2672     87.7551
      2676     87.8241
      2680     88.0005
      2684     88.1282
      2688     88.2406
      2692     88.4053
      2696     88.4728
      2700     88.6499
      2704     88.7765
      2708     88.8864
      2712     89.0536
      2716     89.1185
      2720     89.2983
      2724     89.4274
      2728     89.5368
      2732     89.7023
      2736     89.7678
      2740     89.9454
      2744      90.076
      2748     90.1811
      2752     90.3487
      2756     90.4114
      2760     90.5945
      2764     90.7205
      2768     90.8244
      2772     90.9927
      2776     91.0581
      2780     91.2392
      2784     91.3688
      2788      91.471
      2792     91.6393
      2796     91.7027
      2800     91.8824
      2804     92.0148
      2808     92.1174
      2812     92.2837
      2816     92.3517
      2820     92.5286
      2824     92.6648
      2828      92.766
      2832      92.932
      2836     92.9981
      2840     93.1803
      2844     93.3135
      2848     93.4096
      2852     93.5743
      2856     93.6434
      2860     93.8237
      2864     93.9608
      2868      94.054
      2872     94.2201
      2876     94.2938
      2880      94.473
      2884     94.6057
      2888     94.7048
      2892     94.8683
      2896      94.943
      2900     95.1236
      2904     95.2589
      2908     95.3616
      2912     95.5189
      2916     95.5994
      2920     95.7786
      2924     95.9146
      2928     96.0178
      2932     96.1755
      2936     96.2537
      2940     96.4312
      2944     96.5691
      2948     96.6749
      2952     96.8315
      2956     96.9088
      2960     97.0877
      2964     97.2206
      2968     97.3266
      2972     97.4828
      2976      97.564
      2980     97.7397
      2984     97.8706
      2988     97.9754
      2992     98.1354
      2996     98.2139
      3000     98.3865
      3004     98.5187
      3008     98.6253
      3012     98.7875
      3016     98.8629
      3020     99.0363
      3024      99.167
      3028     99.2737
      3032     99.4367
      3036     99.5136
      3040     99.6897
      3044     99.8142
      3048     99.9213
      3052     100.086
      3056     100.159
      3060     100.334
      3064     100.462
      3068     100.568
      3072     100.736
      3076     100.803
      3080     100.988
      3084     101.105
      3088     101.216
      3092     101.383
      3096      101.45
      3100     101.636
      3104     101.751
      3108     101.866
      3112     102.032
      3116     102.099
      3120     102.287
      3124     102.401
      3128     102.521
      3132     102.685
      3136     102.753
      3140     102.937
      3144     103.052
      3148     103.171
      3152     103.333
      3156     103.404
      3160     103.588
      3164     103.707
      3168     103.818
      3172     103.986
      3176     104.058
      3180     104.241
      3184     104.356
      3188      104.47
      3192     104.637
      3196      104.71
      3200     104.891
      3204     105.007
      3208      105.12
      3212     105.287
      3216     105.362
      3220     105.542
      3224     105.659
      3228     105.768
      3232     105.938
      3236     106.013
      3240     106.191
      3244     106.305
      3248     106.415
      3252     106.586
      3256      106.66
      3260     106.844
      3264     106.958
      3268     107.067
      3272     107.236
      3276     107.309
      3280     107.498
      3284     107.613
      3288      107.72
      3292     107.892
      3296     107.965
      3300     108.152
      3304     108.269
      3308     108.374
      3312     108.545
      3316     108.617
      3320     108.811
      3324     108.925
      3328      109.03
      3332     109.205
      3336      109.27
      3340     109.468
      3344     109.586
      3348     109.684
      3352     109.869
      3356     109.928
      3360     110.128
      3364     110.244
      3368     110.346
      3372     110.528
      3376     110.588
      3380     110.786
      3384     110.898
      3388     111.001
      3392     111.188
      3396     111.246
      3400     111.439
      3404     111.553
      3408     111.653
      3412     111.842
      3416     111.898
      3420     112.094
      3424     112.204
      3428     112.304
      3432      112.49
      3436     112.546
      3440      112.74
      3444     112.853
