# MSD gathered over 10000 ps with 501 restarts
# Diffusion constants fitted from time 1000 to 9000 ps
# D[       SOL] = 2.4732 (+/- 0.0135) (1e-5 cm^2/s)
         0           0
         4   0.0700105
         8     0.13034
        12     0.19049
        16     0.25006
        20    0.310042
        24    0.369392
        28    0.428632
        32      0.4881
        36    0.547868
        40     0.60782
        44    0.667172
        48    0.726005
        52    0.784516
        56     0.84372
        60    0.903588
        64    0.962508
        68     1.02133
        72     1.08007
        76     1.13923
        80     1.19891
        84     1.25822
        88     1.31689
        92     1.37546
        96     1.43517
       100     1.49519
       104     1.55474
       108     1.61342
       112     1.67179
       116     1.73165
       120     1.79131
       124     1.85064
       128     1.90981
       132     1.96772
       136      2.0273
       140     2.08738
       144     2.14696
       148     2.20619
       152     2.26414
       156     2.32405
       160     2.38399
       164     2.44363
       168     2.50279
       172     2.56095
       176     2.62066
       180     2.68034
       184     2.74037
       188     2.79911
       192     2.85709
       196     2.91689
       200     2.97614
       204     3.03589
       208     3.09478
       212     3.15253
       216     3.21308
       220     3.27168
       224     3.33147
       228     3.38986
       232     3.44791
       236     3.50883
       240     3.56709
       244     3.62662
       248     3.68527
       252     3.74295
       256     3.80344
       260     3.86165
       264     3.92103
       268     3.97965
       272     4.03792
       276     4.09902
       280     4.15712
       284     4.21711
       288     4.27566
       292     4.33377
       296     4.39496
       300     4.45319
       304     4.51327
       308     4.57162
       312     4.63006
       316      4.6912
       320     4.74925
       324     4.80971
       328     4.86763
       332      4.9256
       336     4.98628
       340     5.04473
       344     5.10494
       348     5.16255
       352     5.22025
       356     5.28118
       360     5.33946
       364     5.39871
       368     5.45595
       372     5.51428
       376     5.57437
       380     5.63333
       384     5.69228
       388     5.74916
       392     5.80752
       396     5.86849
       400     5.92759
       404     5.98671
       408     6.04401
       412     6.10243
       416      6.1632
       420     6.22278
       424     6.28206
       428     6.33932
       432     6.39817
       436     6.45872
       440     6.51836
       444     6.57757
       448     6.63448
       452      6.6932
       456     6.75403
       460     6.81413
       464     6.87329
       468     6.93035
       472     6.98925
       476     7.05054
       480     7.11069
       484     7.16992
       488     7.22699
       492     7.28584
       496     7.34706
       500      7.4068
       504     7.46639
       508     7.52309
       512     7.58219
       516     7.64355
       520     7.70357
       524     7.76271
       528     7.81949
       532     7.87927
       536     7.94059
       540     8.00139
       544     8.06016
       548     8.11668
       552     8.17603
       556     8.23713
       560     8.29818
       564     8.35667
       568     8.41307
       572     8.47219
       576     8.53277
       580      8.5937
       584     8.65213
       588     8.70821
       592     8.76751
       596     8.82833
       600     8.88894
       604     8.94667
       608      9.0028
       612     9.06203
       616     9.12321
       620     9.18349
       624     9.24152
       628     9.29767
       632     9.35671
       636     9.41839
       640      9.4787
       644     9.53645
       648     9.59267
       652      9.6519
       656     9.71329
       660     9.77404
       664     9.83183
       668     9.88805
       672     9.94713
       676     10.0093
       680     10.0701
       684     10.1281
       688     10.1839
       692     10.2434
       696     10.3052
       700     10.3662
       704     10.4242
       708     10.4803
       712     10.5391
       716     10.6016
       720     10.6625
       724     10.7205
       728     10.7761
       732     10.8353
       736     10.8973
       740     10.9575
       744     11.0158
       748     11.0712
       752     11.1305
       756     11.1926
       760     11.2524
       764     11.3113
       768     11.3662
       772     11.4264
       776     11.4888
       780      11.548
       784     11.6072
       788     11.6624
       792     11.7224
       796     11.7848
       800     11.8444
       804     11.9035
       808     11.9586
       812     12.0185
       816     12.0812
       820     12.1407
       824     12.1989
       828      12.254
       832     12.3139
       836     12.3764
       840     12.4354
       844     12.4938
       848     12.5486
       852     12.6082
       856     12.6711
       860     12.7303
       864     12.7878
       868     12.8425
       872     12.9023
       876     12.9645
       880      13.024
       884      13.082
       888     13.1354
       892     13.1957
       896     13.2586
       900     13.3177
       904      13.376
       908     13.4303
       912     13.4897
       916     13.5525
       920     13.6115
       924     13.6691
       928     13.7237
       932      13.784
       936     13.8466
       940     13.9055
       944     13.9626
       948      14.017
       952     14.0774
       956     14.1388
       960     14.1984
       964     14.2555
       968     14.3095
       972       14.37
       976     14.4316
       980     14.4915
       984     14.5485
       988     14.6025
       992     14.6629
       996     14.7245
      1000     14.7845
      1004     14.8416
      1008     14.8958
      1012     14.9558
      1016     15.0174
      1020     15.0772
      1024     15.1347
      1028     15.1884
      1032     15.2492
      1036     15.3108
      1040     15.3713
      1044     15.4288
      1048     15.4815
      1052     15.5429
      1056     15.6043
      1060     15.6646
      1064     15.7221
      1068     15.7741
      1072     15.8367
      1076     15.8979
      1080     15.9577
      1084     16.0148
      1088     16.0675
      1092       16.13
      1096      16.191
      1100     16.2501
      1104      16.309
      1108     16.3609
      1112     16.4235
      1116      16.485
      1120     16.5433
      1124     16.6017
      1128     16.6539
      1132     16.7154
      1136     16.7781
      1140     16.8362
      1144     16.8946
      1148     16.9469
      1152     17.0082
      1156     17.0713
      1160       17.13
      1164     17.1875
      1168     17.2393
      1172     17.3007
      1176      17.365
      1180     17.4234
      1184     17.4805
      1188     17.5329
      1192     17.5941
      1196     17.6582
      1200     17.7165
      1204     17.7738
      1208     17.8261
      1212     17.8878
      1216     17.9514
      1220     18.0095
      1224     18.0666
      1228      18.119
      1232     18.1814
      1236     18.2454
      1240     18.3026
      1244     18.3601
      1248      18.413
      1252     18.4753
      1256     18.5402
      1260     18.5979
      1264     18.6557
      1268     18.7088
      1272     18.7705
      1276     18.8358
      1280     18.8936
      1284     18.9519
      1288     19.0049
      1292     19.0667
      1296     19.1323
      1300       19.19
      1304     19.2498
      1308     19.3014
      1312     19.3635
      1316     19.4289
      1320     19.4864
      1324     19.5468
      1328     19.5981
      1332     19.6602
      1336      19.726
      1340     19.7843
      1344     19.8436
      1348     19.8947
      1352      19.957
      1356     20.0227
      1360     20.0804
      1364     20.1392
      1368     20.1907
      1372     20.2521
      1376     20.3184
      1380     20.3762
      1384     20.4351
      1388      20.486
      1392      20.548
      1396      20.615
      1400     20.6726
      1404     20.7313
      1408     20.7823
      1412      20.844
      1416     20.9112
      1420     20.9695
      1424      21.029
      1428     21.0789
      1432     21.1415
      1436     21.2084
      1440     21.2668
      1444      21.326
      1448     21.3755
      1452     21.4382
      1456      21.505
      1460      21.563
      1464     21.6224
      1468     21.6716
      1472     21.7336
      1476     21.8015
      1480     21.8596
      1484     21.9191
      1488      21.967
      1492     22.0295
      1496     22.0983
      1500     22.1562
      1504     22.2159
      1508     22.2643
      1512     22.3264
      1516     22.3948
      1520     22.4531
      1524     22.5119
      1528       22.56
      1532     22.6225
      1536     22.6911
      1540     22.7494
      1544     22.8082
      1548     22.8555
      1552     22.9182
      1556     22.9878
      1560     23.0447
      1564     23.1028
      1568     23.1508
      1572     23.2134
      1576     23.2832
      1580     23.3397
      1584     23.3978
      1588     23.4456
      1592     23.5084
      1596     23.5796
      1600     23.6356
      1604     23.6934
      1608     23.7414
      1612     23.8034
      1616     23.8745
      1620     23.9316
      1624     23.9894
      1628     24.0362
      1632     24.0995
      1636     24.1705
      1640     24.2268
      1644     24.2851
      1648     24.3312
      1652     24.3943
      1656      24.466
      1660     24.5216
      1664     24.5795
      1668     24.6251
      1672     24.6889
      1676     24.7613
      1680     24.8162
      1684     24.8745
      1688     24.9206
      1692     24.9843
      1696     25.0566
      1700     25.1116
      1704     25.1692
      1708     25.2156
      1712      25.279
      1716     25.3524
      1720     25.4068
      1724     25.4648
      1728      25.511
      1732     25.5744
      1736     25.6482
      1740     25.7034
      1744     25.7603
      1748     25.8063
      1752     25.8697
      1756     25.9434
      1760     25.9988
      1764     26.0564
      1768     26.1017
      1772     26.1652
      1776     26.2385
      1780     26.2941
      1784     26.3516
      1788      26.398
      1792     26.4614
      1796     26.5344
      1800     26.5907
      1804     26.6486
      1808     26.6932
      1812     26.7573
      1816     26.8312
      1820     26.8868
      1824     26.9439
      1828      26.988
      1832     27.0525
      1836     27.1261
      1840     27.1816
      1844     27.2397
      1848     27.2843
      1852      27.348
      1856     27.4222
      1860     27.4769
      1864     27.5354
      1868     27.5789
      1872     27.6436
      1876     27.7179
      1880     27.7723
      1884     27.8305
      1888     27.8738
      1892     27.9391
      1896     28.0136
      1900     28.0673
      1904     28.1271
      1908     28.1716
      1912     28.2365
      1916     28.3111
      1920     28.3646
      1924     28.4249
      1928     28.4687
      1932     28.5339
      1936     28.6085
      1940     28.6623
      1944     28.7217
      1948     28.7658
      1952     28.8313
      1956     28.9052
      1960      28.959
      1964      29.019
      1968     29.0619
      1972      29.128
      1976     29.2016
      1980     29.2548
      1984      29.315
      1988     29.3573
      1992     29.4242
      1996     29.4978
      2000     29.5515
      2004     29.6103
      2008     29.6536
      2012       29.72
      2016     29.7943
      2020     29.8474
      2024     29.9056
      2028     29.9489
      2032     30.0163
      2036     30.0896
      2040     30.1432
      2044     30.2015
      2048     30.2443
      2052     30.3122
      2056     30.3865
      2060     30.4388
      2064     30.4967
      2068     30.5411
      2072     30.6093
      2076     30.6825
      2080     30.7348
      2084     30.7932
      2088     30.8373
      2092     30.9062
      2096     30.9789
      2100     31.0315
      2104     31.0892
      2108     31.1348
      2112     31.2026
      2116     31.2753
      2120     31.3272
      2124     31.3846
      2128     31.4307
      2132      31.499
      2136     31.5722
      2140     31.6254
      2144     31.6819
      2148      31.728
      2152     31.7958
      2156     31.8687
      2160     31.9207
      2164     31.9786
      2168     32.0244
      2172     32.0929
      2176     32.1647
      2180     32.2168
      2184     32.2758
      2188     32.3214
      2192     32.3903
      2196     32.4622
      2200     32.5139
      2204     32.5716
      2208     32.6175
      2212     32.6866
      2216     32.7591
      2220      32.809
      2224     32.8677
      2228     32.9129
      2232     32.9832
      2236     33.0544
      2240     33.1054
      2244     33.1638
      2248       33.21
      2252     33.2795
      2256     33.3508
      2260     33.4033
      2264     33.4591
      2268     33.5054
      2272     33.5757
      2276     33.6474
      2280     33.6986
      2284      33.755
      2288     33.8004
      2292     33.8712
      2296     33.9434
      2300     33.9948
      2304     34.0517
      2308     34.0967
      2312     34.1681
      2316     34.2406
      2320     34.2903
      2324     34.3486
      2328     34.3926
      2332     34.4637
      2336     34.5343
      2340     34.5856
      2344      34.645
      2348     34.6885
      2352     34.7603
      2356     34.8308
      2360     34.8821
      2364     34.9417
      2368     34.9847
      2372     35.0566
      2376     35.1267
      2380     35.1771
      2384     35.2373
      2388     35.2803
      2392     35.3517
      2396     35.4229
      2400     35.4728
      2404     35.5331
      2408     35.5764
      2412     35.6477
      2416      35.719
      2420     35.7681
      2424     35.8283
      2428     35.8715
      2432     35.9432
      2436     36.0141
      2440     36.0636
      2444     36.1235
      2448     36.1669
      2452     36.2384
      2456     36.3086
      2460     36.3587
      2464     36.4187
      2468     36.4604
      2472     36.5322
      2476     36.6026
      2480     36.6537
      2484     36.7125
      2488     36.7548
      2492     36.8261
      2496      36.895
      2500     36.9464
      2504     37.0045
      2508      37.047
      2512     37.1186
      2516     37.1887
      2520     37.2397
      2524     37.2979
      2528     37.3403
      2532     37.4115
      2536     37.4817
      2540     37.5333
      2544     37.5916
      2548     37.6344
      2552     37.7064
      2556     37.7767
      2560      37.827
      2564     37.8855
      2568     37.9291
      2572     37.9999
      2576     38.0699
      2580     38.1214
      2584     38.1782
      2588      38.222
      2592     38.2918
      2596     38.3646
      2600     38.4151
      2604     38.4735
      2608     38.5157
      2612     38.5865
      2616     38.6597
      2620     38.7102
      2624      38.768
      2628     38.8105
      2632     38.8822
      2636      38.955
      2640     39.0059
      2644     39.0629
      2648     39.1056
      2652     39.1772
      2656     39.2501
      2660     39.3012
      2664     39.3591
      2668     39.4008
      2672     39.4724
      2676     39.5455
      2680     39.5952
      2684     39.6537
      2688     39.6946
      2692     39.7681
      2696     39.8407
      2700     39.8898
      2704     39.9475
      2708     39.9881
      2712     40.0623
      2716     40.1331
      2720     40.1833
      2724     40.2414
      2728     40.2801
      2732     40.3541
      2736     40.4252
      2740     40.4764
      2744     40.5342
      2748     40.5725
      2752     40.6487
      2756     40.7189
      2760     40.7696
      2764     40.8278
      2768     40.8656
      2772     40.9429
      2776     41.0122
      2780     41.0633
      2784     41.1209
      2788     41.1583
      2792     41.2345
      2796     41.3034
      2800     41.3557
      2804     41.4136
      2808     41.4513
      2812     41.5287
      2816     41.5966
      2820     41.6472
      2824     41.7075
      2828     41.7443
      2832     41.8215
      2836     41.8894
      2840     41.9395
      2844     42.0024
      2848     42.0375
      2852     42.1151
      2856     42.1842
      2860      42.233
      2864     42.2963
      2868     42.3329
      2872      42.408
      2876     42.4778
      2880     42.5272
      2884     42.5908
      2888     42.6278
      2892     42.7023
      2896     42.7719
      2900     42.8216
      2904     42.8849
      2908     42.9215
      2912      42.996
      2916     43.0668
      2920     43.1155
      2924     43.1786
      2928     43.2149
      2932       43.29
      2936     43.3606
      2940     43.4101
      2944     43.4738
      2948     43.5088
      2952     43.5836
      2956     43.6535
      2960     43.7029
      2964     43.7669
      2968     43.8021
      2972     43.8754
      2976     43.9469
      2980     43.9962
      2984     44.0587
      2988     44.0956
      2992     44.1685
      2996     44.2415
      3000     44.2899
      3004     44.3535
      3008     44.3917
      3012     44.4627
      3016     44.5362
      3020     44.5843
      3024     44.6476
      3028     44.6879
      3032     44.7587
      3036       44.83
      3040     44.8811
      3044     44.9421
      3048     44.9821
      3052     45.0533
      3056     45.1268
      3060     45.1763
      3064     45.2378
      3068     45.2777
      3072     45.3474
      3076     45.4221
      3080     45.4707
      3084     45.5344
      3088     45.5718
      3092     45.6429
      3096     45.7181
      3100     45.7651
      3104     45.8318
      3108      45.869
      3112     45.9388
      3116     46.0138
      3120     46.0625
      3124     46.1282
      3128     46.1659
      3132     46.2342
      3136     46.3118
      3140     46.3596
      3144     46.4262
      3148      46.463
      3152     46.5332
      3156     46.6089
      3160      46.657
      3164     46.7248
      3168     46.7613
      3172     46.8318
      3176     46.9077
      3180     46.9548
      3184     47.0216
      3188     47.0582
      3192     47.1301
      3196     47.2052
      3200     47.2506
      3204     47.3173
      3208     47.3548
      3212     47.4266
      3216     47.5018
      3220     47.5463
      3224     47.6156
      3228      47.652
      3232     47.7251
      3236     47.7997
      3240     47.8444
      3244     47.9145
      3248     47.9522
      3252     48.0231
      3256     48.0994
      3260     48.1436
      3264     48.2149
      3268     48.2519
      3272     48.3236
      3276     48.3997
      3280     48.4447
      3284     48.5146
      3288     48.5505
      3292     48.6235
      3296     48.7011
      3300     48.7447
      3304      48.814
      3308     48.8504
      3312     48.9222
      3316     48.9993
      3320     49.0452
      3324     49.1126
      3328     49.1507
      3332     49.2204
      3336     49.2997
      3340      49.346
      3344     49.4136
      3348      49.449
      3352     49.5202
      3356     49.5983
      3360     49.6442
      3364     49.7123
      3368     49.7462
      3372     49.8174
      3376     49.8966
      3380     49.9438
      3384     50.0091
      3388     50.0451
      3392     50.1155
      3396     50.1933
      3400     50.2404
      3404     50.3102
      3408     50.3437
      3412     50.4128
      3416     50.4909
      3420     50.5376
      3424      50.607
      3428     50.6396
      3432     50.7096
      3436     50.7884
      3440     50.8337
      3444      50.905
